4-b-Kopplung-in Phase- Edelstahl;4-b-Kopplung-in Phase- Edelstahl;4-b-Kopplung-in Phase- Edelstahl;4-b-Kopplung-in Phase- Edelstahl;4-b-Kopplung-gegen Phase- Edelstahl;4-b-Kopplung-gegen Phase- Edelstahl;4-b-Kopplung-gegen Phase- Edelstahl;4-b-Kopplung-gegen Phase- Edelstahl;4-b-Kopplung-Schwebung- Edelstahl;4-b-Kopplung-Schwebung- Edelstahl;4-b-Kopplung-Schwebung- Edelstahl;4-b-Kopplung-Schwebung- Edelstahl
Zeit (s);Position (cm);Geschwindigkeit (m/s);Beschleunigung (m/s²);Zeit (s);Position (cm);Geschwindigkeit (m/s);Beschleunigung (m/s²);Zeit (s);Position (cm);Geschwindigkeit (m/s);Beschleunigung (m/s²)
0;52.3;;;0;48.52;;;0;51.95;;
0.02;52.65;0.08;;0.02;48.23;-0.15;;0.02;51.7;-0.18;
0.04;52.62;-0.09;-4.47;0.04;47.94;-0.15;-0.22;0.04;51.23;-0.19;0.85
0.06;52.31;-0.1;1.06;0.06;47.63;-0.15;-0.12;0.06;50.93;-0.15;1.06
0.08;52.23;-0.04;-0.21;0.08;47.32;-0.16;0.11;0.08;50.64;-0.15;-0.22
0.1;52.14;-0.11;-0.42;0.1;47.01;-0.15;0.12;0.1;50.33;-0.15;-0.11
0.12;51.8;-0.06;1.15;0.12;46.72;-0.15;-0.11;0.12;50.02;-0.15;-0.1
0.14;51.9;-0.06;-1.6;0.14;46.41;-0.16;-0.01;0.14;49.71;-0.16;-0.23
0.16;51.56;-0.12;-0.3;0.16;46.1;-0.15;0.22;0.16;49.39;-0.16;-0.02
0.18;51.4;-0.07;1.08;0.18;45.81;-0.15;0.11;0.18;49.06;-0.16;0.23
0.2;51.27;-0.08;-0.55;0.2;45.51;-0.15;0.1;0.2;48.75;-0.15;0.01
0.22;51.08;-0.09;-0.45;0.22;45.22;-0.14;0.22;0.22;48.44;-0.16;-0.12
0.24;50.89;-0.1;-0.1;0.24;44.94;-0.14;0.21;0.24;48.11;-0.16;0.11
0.26;50.69;-0.1;-0.2;0.26;44.67;-0.13;0.32;0.26;47.8;-0.15;0.11
0.28;50.5;-0.11;-0.45;0.28;44.41;-0.13;0.43;0.28;47.49;-0.16;0.09
0.3;50.26;-0.12;-0.12;0.3;44.17;-0.12;0.44;0.3;47.18;-0.15;0.32
0.32;50.03;-0.11;0.02;0.32;43.94;-0.11;0.32;0.32;46.89;-0.14;0.34
0.34;49.81;-0.12;-0.32;0.34;43.74;-0.1;0.32;0.34;46.61;-0.14;0.1
0.36;49.57;-0.12;-0.34;0.36;43.53;-0.1;0.43;0.36;46.34;-0.14;0.2
0.38;49.31;-0.13;-0.12;0.38;43.35;-0.09;0.42;0.38;46.06;-0.13;0.43
0.4;49.06;-0.13;0.01;0.4;43.18;-0.08;0.54;0.4;45.82;-0.12;0.43
0.42;48.8;-0.13;-0.09;0.42;43.04;-0.07;0.54;0.42;45.58;-0.11;0.44
0.44;48.54;-0.13;-0.34;0.44;42.92;-0.06;0.43;0.44;45.37;-0.1;0.21
0.46;48.27;-0.14;-0.12;0.46;42.82;-0.05;0.42;0.46;45.16;-0.1;0.31
0.48;47.97;-0.14;0.12;0.48;42.73;-0.04;0.53;0.48;44.95;-0.09;0.55
0.5;47.72;-0.14;-0.11;0.5;42.66;-0.03;0.65;0.5;44.8;-0.08;0.32
0.52;47.42;-0.14;-0.12;0.52;42.62;-0.01;0.65;0.52;44.63;-0.08;0.32
0.54;47.15;-0.14;-0.01;0.54;42.6;-0.000799;0.65;0.54;44.49;-0.07;0.42
0.56;46.85;-0.14;0.11;0.56;42.62;0.01;0.54;0.56;44.35;-0.06;0.54
0.58;46.58;-0.14;0.12;0.58;42.65;0.02;0.43;0.58;44.24;-0.05;0.44
0.6;46.3;-0.14;-0.11;0.6;42.7;0.03;0.42;0.6;44.16;-0.04;0.31
0.62;46.03;-0.14;-0.01;0.62;42.77;0.04;0.53;0.62;44.07;-0.04;0.54
0.64;45.73;-0.14;0.23;0.64;42.85;0.05;0.65;0.64;44.02;-0.02;0.44
0.66;45.48;-0.13;0.01;0.66;42.97;0.06;0.54;0.66;43.98;-0.02;0.21
0.68;45.2;-0.14;-0.13;0.68;43.11;0.07;0.43;0.68;43.95;-0.01;0.32
0.7;44.93;-0.14;0.21;0.7;43.26;0.08;0.43;0.7;43.93;0;0.43
0.72;44.65;-0.13;0.34;0.72;43.44;0.09;0.43;0.72;43.93;0;0.43
0.74;44.41;-0.12;0.1;0.74;43.62;0.1;0.43;0.74;43.94;0.01;0.43
0.76;44.15;-0.13;0.21;0.76;43.83;0.11;0.43;0.76;43.98;0.02;0.44
0.78;43.91;-0.12;0.34;0.78;44.05;0.12;0.44;0.78;44.03;0.03;0.34
0.8;43.68;-0.11;0.11;0.8;44.29;0.12;0.33;0.8;44.1;0.03;0.11
0.82;43.46;-0.11;0.1;0.82;44.55;0.13;0.21;0.82;44.17;0.03;0.09
0.84;43.24;-0.11;0.22;0.84;44.81;0.13;0.21;0.84;44.23;0.04;0.34
0.86;43.03;-0.1;0.21;0.86;45.08;0.14;0.21;0.86;44.32;0.05;0.11
0.88;42.82;-0.1;0.32;0.88;45.35;0.14;0.21;0.88;44.42;0.04;0.08
0.9;42.63;-0.09;0.33;0.9;45.65;0.15;0.22;0.9;44.49;0.05;0.57
0.92;42.46;-0.09;0.21;0.92;45.94;0.15;0.11;0.92;44.63;0.07;0.13
0.94;42.29;-0.08;0.32;0.94;46.25;0.15;-0.01;0.94;44.75;0.06;-0.24
0.96;42.13;-0.07;0.44;0.96;46.54;0.15;0.11;0.96;44.85;0.06;0.22
0.98;41.99;-0.06;0.32;0.98;46.85;0.15;0.12;0.98;44.97;0.06;0.12
1;41.87;-0.06;0.32;1;47.16;0.16;-0.1;1;45.11;0.06;-0.13
1.02;41.75;-0.05;0.33;1.02;47.47;0.15;-0.22;1.02;45.21;0.06;0.23
1.04;41.66;-0.05;0.2;1.04;47.76;0.15;-0.11;1.04;45.35;0.07;0.02
1.06;41.56;-0.04;0.43;1.06;48.05;0.15;-0.1;1.06;45.49;0.06;-0.34
1.08;41.49;-0.03;0.44;1.08;48.35;0.14;-0.21;1.08;45.59;0.06;7.56E-05
1.1;41.44;-0.03;0.22;1.1;48.62;0.14;-0.21;1.1;45.71;0.06;0.01
1.12;41.39;-0.02;0.2;1.12;48.9;0.13;-0.32;1.12;45.83;0.06;-0.21
1.14;41.35;-0.02;0.43;1.14;49.16;0.12;-0.33;1.14;45.93;0.05;-0.22
1.16;41.31;0;0.44;1.16;49.4;0.12;-0.21;1.16;46.04;0.05;-0.11
1.18;41.33;-0.000258;0.19;1.18;49.64;0.12;-0.31;1.18;46.12;0.05;-0.09
1.2;41.31;0;0.66;1.2;49.87;0.11;-0.43;1.2;46.23;0.04;-0.33
1.22;41.34;0.03;0.46;1.22;50.07;0.1;-0.43;1.22;46.3;0.03;-0.22
1.24;41.42;0.02;-0.04;1.24;50.26;0.09;-0.42;1.24;46.37;0.03;-0.1
1.26;41.43;0.02;0.65;1.26;50.44;0.08;-0.53;1.26;46.44;0.03;-0.21
1.28;41.51;0.05;0.58;1.28;50.59;0.07;-0.64;1.28;46.49;0.03;-0.32
1.3;41.62;0.05;-0.13;1.3;50.72;0.06;-0.65;1.3;46.54;0.02;-0.33
1.32;41.7;0.04;0.19;1.32;50.82;0.04;-0.55;1.32;46.56;0.01;-0.21
1.34;41.79;0.06;0.66;1.34;50.89;0.03;-0.31;1.34;46.59;0.01;-0.33
1.36;41.93;0.07;0.44;1.36;50.96;0.03;-0.41;1.36;46.59;0;-0.22
1.38;42.06;0.07;0.21;1.38;51.01;0.02;-0.65;1.38;46.59;0.000291;-0.09
1.4;42.22;0.08;0.21;1.4;51.03;0;-0.55;1.4;46.6;0;-0.32
1.42;42.37;0.08;0.21;1.42;51.03;0;-0.41;1.42;46.58;-0.01;-0.44
1.44;42.54;0.09;0.32;1.44;51.02;-0.01;-0.64;1.44;46.55;-0.02;-0.22
1.46;42.71;0.09;0.33;1.46;50.99;-0.03;-0.78;1.46;46.49;-0.02;-0.09
1.48;42.92;0.1;0.21;1.48;50.9;-0.04;-0.43;1.48;46.46;-0.03;-0.33
1.5;43.11;0.1;0.33;1.5;50.82;-0.05;-0.41;1.5;46.39;-0.03;-0.22
1.52;43.33;0.11;0.23;1.52;50.72;-0.06;-0.77;1.52;46.32;-0.03;-0.1
1.54;43.55;0.11;-0.01;1.54;50.58;-0.08;-0.56;1.54;46.26;-0.04;-0.22
1.56;43.78;0.11;0.09;1.56;50.41;-0.08;-0.2;1.56;46.17;-0.04;-0.11
1.58;44;0.12;0.32;1.58;50.26;-0.09;-0.42;1.58;46.08;-0.04;-0.1
1.6;44.24;0.12;0.34;1.6;50.07;-0.1;-0.55;1.6;46;-0.05;-0.22
1.62;44.5;0.13;0.11;1.62;49.86;-0.11;-0.43;1.62;45.9;-0.05;-0.11
1.64;44.75;0.13;-0.01;1.64;49.64;-0.12;-0.44;1.64;45.79;-0.05;-7.29E-15
1.66;45.01;0.13;0.1;1.66;49.4;-0.12;-0.32;1.66;45.69;-0.05;0.01
1.68;45.27;0.13;0.22;1.68;49.14;-0.13;-0.32;1.68;45.59;-0.05;-0.11
1.7;45.54;0.14;0.12;1.7;48.89;-0.14;-0.33;1.7;45.48;-0.06;-0.13
1.72;45.82;0.14;-0.11;1.72;48.59;-0.14;-0.22;1.72;45.36;-0.06;0.22
1.74;46.1;0.13;-0.13;1.74;48.32;-0.15;-0.22;1.74;45.26;-0.05;0.24
1.76;46.35;0.13;0.21;1.76;48.01;-0.15;-0.11;1.76;45.17;-0.05;-0.1
1.78;46.63;0.14;0.24;1.78;47.72;-0.15;-0.11;1.78;45.07;-0.05;-0.24
1.8;46.92;0.14;-0.11;1.8;47.41;-0.15;-0.12;1.8;44.97;-0.06;0.19
1.82;47.2;0.14;-0.11;1.82;47.1;-0.15;3.47E-14;1.82;44.84;-0.04;0.68
1.84;47.47;0.14;-0.11;1.84;46.79;-0.15;-3.47E-14;1.84;44.79;-0.03;0.12
1.86;47.75;0.13;-0.11;1.86;46.48;-0.15;-3.47E-14;1.86;44.73;-0.04;-0.14
1.88;48;0.13;0.01;1.88;46.17;-0.15;3.47E-14;1.88;44.64;-0.04;0.44
1.9;48.28;0.13;-0.1;1.9;45.86;-0.15;-0.01;1.9;44.58;-0.02;0.23
1.92;48.54;0.13;-0.22;1.92;45.55;-0.16;0.1;1.92;44.55;-0.03;-0.04
1.94;48.8;0.12;-0.11;1.94;45.24;-0.15;0.21;1.94;44.48;-0.02;0.65
1.96;49.04;0.12;-0.1;1.96;44.95;-0.15;0.32;1.96;44.46;0;0.57
1.98;49.3;0.12;-0.22;1.98;44.65;-0.14;0.44;1.98;44.48;0;-0.01
2;49.52;0.12;-0.11;2;44.39;-0.13;0.22;2;44.46;-0.000556;0.2
2.02;49.76;0.12;-0.09;2.02;44.13;-0.13;0.2;2.02;44.48;0.01;0.43
2.04;49.98;0.11;-0.32;2.04;43.87;-0.12;0.44;2.04;44.49;0.02;0.44
2.06;50.21;0.1;-0.35;2.06;43.65;-0.11;0.32;2.06;44.54;0.03;0.32
2.08;50.4;0.1;0.02;2.08;43.43;-0.11;0.42;2.08;44.6;0.03;0.43
2.1;50.6;0.1;-0.18;2.1;43.22;-0.1;0.55;2.1;44.66;0.04;0.44
2.12;50.81;0.09;-0.67;2.12;43.05;-0.09;0.32;2.12;44.77;0.05;0.19
2.14;50.97;0.08;-0.34;2.14;42.87;-0.08;0.42;2.14;44.85;0.05;0.54
2.16;51.12;0.08;-0.1;2.16;42.72;-0.07;0.65;2.16;44.97;0.07;0.56
2.18;51.28;0.07;-0.21;2.18;42.59;-0.06;0.54;2.18;45.12;0.07;0.21
2.2;51.42;0.07;-0.31;2.2;42.49;-0.05;0.53;2.2;45.26;0.08;0.32
2.22;51.56;0.06;-0.53;2.22;42.4;-0.04;0.65;2.22;45.43;0.09;0.32
2.24;51.66;0.05;0.85;2.24;42.35;-0.02;0.54;2.24;45.6;0.09;0.32
2.26;51.75;0.09;1.15;2.26;42.31;-0.01;0.42;2.26;45.79;0.1;0.44
2.28;52.04;0.09;-1.5;2.28;42.29;-0.01;0.53;2.28;46;0.11;0.33
2.3;52.13;0.04;-1.71;2.3;42.29;0.01;0.64;2.3;46.22;0.11;0.21
2.32;52.18;0.03;-0.32;2.32;42.33;0.02;0.65;2.32;46.44;0.12;0.21
2.34;52.23;0.02;-0.31;2.34;42.38;0.03;0.54;2.34;46.68;0.12;0.32
2.36;52.27;0.01;-0.44;2.36;42.46;0.04;0.42;2.36;46.92;0.13;0.34
2.38;52.29;0;-0.32;2.38;42.55;0.05;0.53;2.38;47.2;0.13;0.11
2.4;52.29;0.000654;-0.31;2.4;42.66;0.06;0.65;2.4;47.45;0.13;0.1
2.42;52.29;-0.01;-0.44;2.42;42.8;0.08;0.54;2.42;47.73;0.14;0.21
2.44;52.26;-0.02;-0.32;2.44;42.97;0.09;0.42;2.44;48;0.14;0.22
2.46;52.22;-0.02;-0.31;2.46;43.14;0.09;0.54;2.46;48.29;0.15;0.11
2.48;52.17;-0.03;-0.44;2.48;43.35;0.11;0.44;2.48;48.59;0.15;0.01
2.5;52.11;-0.04;-0.24;2.5;43.57;0.11;0.32;2.5;48.88;0.15;-0.11
2.52;52.02;-0.04;-1.48;2.52;43.79;0.12;0.44;2.52;49.17;0.14;-0.12
2.54;51.95;-0.1;-0.4;2.54;44.05;0.13;0.32;2.54;49.45;0.14;0.01
2.56;51.63;-0.06;0.92;2.56;44.31;0.13;0.32;2.56;49.74;0.14;-0.11
2.58;51.73;-0.06;-1.6;2.58;44.58;0.14;0.33;2.58;50.01;0.14;-0.11
2.6;51.39;-0.12;-0.3;2.6;44.87;0.15;0.21;2.6;50.29;0.14;-0.1
2.62;51.25;-0.07;0.95;2.62;45.16;0.15;0.22;2.62;50.57;0.13;-0.21
2.64;51.1;-0.08;-0.33;2.64;45.47;0.15;0.11;2.64;50.82;0.13;-0.21
2.66;50.92;-0.09;-0.22;2.66;45.78;0.15;0.1;2.66;51.08;0.13;-0.4
2.68;50.75;-0.09;-0.22;2.68;46.09;0.16;0.22;2.68;51.33;0.11;0.74
2.7;50.56;-0.09;-0.22;2.7;46.42;0.16;0.11;2.7;51.54;0.16;1.02
2.72;50.38;-0.1;-0.22;2.72;46.74;0.16;-6.94E-14;2.72;51.95;0.15;-1.39
2.74;50.17;-0.1;-0.21;2.74;47.07;0.16;0.01;2.74;52.15;0.1;-0.06
2.76;49.97;-0.11;-0.33;2.76;47.4;0.16;-0.1;2.76;52.34;0.15;0.97
2.78;49.74;-0.12;-0.22;2.78;47.73;0.16;-0.21;2.78;52.76;0.14;-2.17
2.8;49.5;-0.12;-0.1;2.8;48.04;0.16;-0.22;2.8;52.9;0.07;-2.05
2.82;49.28;-0.12;-0.23;2.82;48.35;0.15;-0.11;2.82;53.02;0.06;-0.42
2.84;49.02;-0.13;0.01;2.84;48.64;0.15;0.02;2.84;53.12;0.05;-0.53
2.86;48.78;-0.12;-0.09;2.86;48.95;0.15;-0.31;2.86;53.21;0.04;-0.64
2.88;48.54;-0.13;-0.35;2.88;49.24;0.14;-0.44;2.88;53.27;0.02;-0.64
2.9;48.26;-0.13;-0.01;2.9;49.5;0.13;-0.2;2.9;53.3;0.01;-0.65
2.92;48.01;-0.13;0.12;2.92;49.78;0.13;-0.42;2.92;53.3;0;-0.54
2.94;47.75;-0.13;-0.1;2.94;50.02;0.12;-0.55;2.94;53.29;-0.01;-0.53
2.96;47.49;-0.13;-0.23;2.96;50.24;0.11;-0.32;2.96;53.26;-0.02;-0.65
2.98;47.22;-0.14;-0.01;2.98;50.45;0.1;-0.3;2.98;53.19;-0.04;-0.64
3;46.94;-0.13;0.12;3;50.66;0.1;-0.64;3;53.11;-0.05;-0.64
3.02;46.68;-0.13;-0.11;3.02;50.83;0.08;-0.76;3.02;52.99;-0.06;-2.27
3.04;46.41;-0.14;-0.01;3.04;50.97;0.07;0.88;3.04;52.85;-0.14;-2.27
3.06;46.13;-0.13;0.22;3.06;51.1;0.11;0.84;3.06;52.42;-0.15;0.98
3.08;45.87;-0.13;0.11;3.08;51.42;0.1;-1.95;3.08;52.24;-0.1;0.98
3.1;45.61;-0.13;-0.01;3.1;51.49;0.04;-1.81;3.1;52.01;-0.12;-0.56
3.12;45.36;-0.13;0.11;3.12;51.56;0.03;-0.54;3.12;51.78;-0.12;-1.84
3.14;45.1;-0.12;0.11;3.14;51.6;0.01;-0.54;3.14;51.52;-0.19;-1.91
3.16;44.86;-0.12;-0.01;3.16;51.62;0.01;-0.46;3.16;51.02;-0.2;0.76
3.18;44.6;-0.13;0.22;3.18;51.62;0;-1.7;3.18;50.71;-0.16;0.73
3.2;44.36;-0.12;0.22;3.2;51.6;-0.06;-0.58;3.2;50.39;-0.17;-0.55
3.22;44.13;-0.12;0.09;3.22;51.37;-0.03;1.76;3.22;50.03;-0.18;-0.32
3.24;43.89;-0.11;0.33;3.24;51.49;0.01;-1.87;3.24;49.67;-0.18;-0.42
3.26;43.68;-0.1;0.22;3.26;51.4;-0.1;-3.06;3.26;49.29;-0.2;-0.55
3.28;43.48;-0.1;0.1;3.28;51.08;-0.11;0.75;3.28;48.88;-0.21;-0.32
3.3;43.27;-0.1;0.22;3.3;50.94;-0.07;0.85;3.3;48.47;-0.21;-0.33
3.32;43.08;-0.09;0.21;3.32;50.79;-0.08;-0.54;3.32;48.04;-0.22;-0.22
3.34;42.89;-0.09;0.32;3.34;50.62;-0.09;-0.55;3.34;47.59;-0.22;-0.1
3.36;42.72;-0.08;0.33;3.36;50.41;-0.1;-0.42;3.36;47.16;-0.22;-0.22
3.38;42.56;-0.08;0.22;3.38;50.21;-0.11;-0.54;3.38;46.69;-0.23;-0.11
3.4;42.41;-0.07;0.21;3.4;49.97;-0.12;-0.55;3.4;46.25;-0.23;-0.11
3.42;42.27;-0.07;0.32;3.42;49.71;-0.13;-0.33;3.42;45.78;-0.23;-0.12
3.44;42.13;-0.06;0.33;3.44;49.44;-0.14;-0.22;3.44;45.32;-0.23;0.11
3.46;42.03;-0.06;0.2;3.46;49.16;-0.14;-0.22;3.46;44.85;-0.23;0.11
3.48;41.9;-0.05;0.43;3.48;48.87;-0.15;-0.21;3.48;44.41;-0.23;-0.01
3.5;41.82;-0.04;0.44;3.5;48.58;-0.15;-0.33;3.5;43.94;-0.23;0.22
3.52;41.75;-0.03;0.22;3.52;48.27;-0.16;-0.23;3.52;43.49;-0.22;0.22
3.54;41.68;-0.03;0.21;3.54;47.94;-0.16;0.01;3.54;43.06;-0.22;0.09
3.56;41.63;-0.03;0.31;3.56;47.63;-0.16;-0.11;3.56;42.61;-0.22;0.43
3.58;41.57;-0.02;0.54;3.58;47.31;-0.16;-0.12;3.58;42.2;-0.2;0.44
3.6;41.56;0;0.44;3.6;46.98;-0.16;0;3.6;41.8;-0.2;0.32
3.62;41.56;-0.00026;0.22;3.62;46.65;-0.16;1.39E-13;3.62;41.4;-0.19;0.43
3.64;41.55;0;0.21;3.64;46.32;-0.16;-0.01;3.64;41.04;-0.18;0.42
3.66;41.57;0.01;0.32;3.66;46;-0.16;0.1;3.66;40.68;-0.17;0.54
3.68;41.59;0.02;0.43;3.68;45.67;-0.16;0.22;3.68;40.35;-0.16;0.54
3.7;41.64;0.03;0.45;3.7;45.36;-0.16;0.22;3.7;40.04;-0.15;0.42
3.72;41.69;0.03;0.11;3.72;45.05;-0.15;0.22;3.72;39.75;-0.14;0.63
3.74;41.78;0.03;0.07;3.74;44.76;-0.15;0.22;3.74;39.47;-0.13;0.87
3.76;41.81;0.04;0.77;3.76;44.46;-0.14;0.21;3.76;39.24;-0.11;0.65
3.78;41.93;0.06;0.56;3.78;44.19;-0.14;0.32;3.78;39.04;-0.1;0.52
3.8;42.05;0.06;0.1;3.8;43.91;-0.13;0.43;3.8;38.85;-0.09;0.86
3.82;42.17;0.06;0.21;3.82;43.67;-0.12;0.43;3.82;38.69;-0.07;0.87
3.84;42.3;0.07;0.21;3.84;43.43;-0.11;0.44;3.84;38.59;-0.05;0.64
3.86;42.44;0.07;0.32;3.86;43.22;-0.1;0.32;3.86;38.48;-0.04;0.75
3.88;42.59;0.08;0.33;3.88;43.01;-0.1;0.42;3.88;38.43;-0.02;0.86
3.9;42.77;0.09;0.21;3.9;42.82;-0.09;0.65;3.9;38.39;-0.01;0.87
3.92;42.94;0.09;0.21;3.92;42.66;-0.07;0.54;3.92;38.41;0.01;0.75
3.94;43.13;0.09;0.21;3.94;42.53;-0.07;0.54;3.94;38.44;0.02;0.75
3.96;43.31;0.1;0.21;3.96;42.4;-0.05;0.54;3.96;38.51;0.04;0.86
3.98;43.52;0.1;0.21;3.98;42.32;-0.04;0.42;3.98;38.61;0.06;0.86
4;43.73;0.11;0.21;4;42.23;-0.04;0.65;4;38.74;0.08;0.87
4.02;43.95;0.11;0.21;4.02;42.18;-0.02;0.66;4.02;38.91;0.09;0.76
4.04;44.17;0.12;0.22;4.04;42.16;-0.01;0.42;4.04;39.12;0.11;0.64
4.06;44.41;0.12;0.11;4.06;42.14;-0.00079;0.53;4.06;39.34;0.12;0.75
4.08;44.65;0.12;0.1;4.08;42.16;0.01;0.64;4.08;39.59;0.14;0.76
4.1;44.89;0.12;0.22;4.1;42.19;0.03;0.65;4.1;39.89;0.15;0.64
4.12;45.15;0.13;0.11;4.12;42.26;0.04;0.54;4.12;40.19;0.16;0.76
4.14;45.41;0.13;-0.01;4.14;42.34;0.05;0.53;4.14;40.54;0.18;0.66
4.16;45.67;0.13;0.11;4.16;42.44;0.06;0.66;4.16;40.91;0.19;0.42
4.18;45.92;0.13;0.11;4.18;42.58;0.07;0.44;4.18;41.29;0.2;0.64
4.2;46.2;0.13;1.13E-13;4.2;42.73;0.08;0.31;4.2;41.7;0.21;0.66
4.22;46.46;0.13;0.01;4.22;42.89;0.09;0.54;4.22;42.15;0.22;0.32
4.24;46.73;0.13;-0.11;4.24;43.07;0.1;0.54;4.24;42.59;0.23;0.31
4.26;46.99;0.13;-0.01;4.26;43.28;0.11;0.43;4.26;43.06;0.24;0.54
4.28;47.25;0.13;0.12;4.28;43.5;0.12;0.44;4.28;43.53;0.25;0.44
4.3;47.52;0.13;-0.1;4.3;43.74;0.12;0.32;4.3;44.05;0.25;0.21
4.32;47.78;0.13;-0.22;4.32;44;0.13;0.32;4.32;44.55;0.26;0.22
4.34;48.04;0.12;-0.12;4.34;44.25;0.14;0.44;4.34;45.08;0.26;0.11
4.36;48.28;0.12;0.12;4.36;44.55;0.15;0.22;4.36;45.6;0.26;0.11
4.38;48.54;0.13;0.02;4.38;44.84;0.15;0.1;4.38;46.13;0.27;0.11
4.4;48.8;0.12;-0.22;4.4;45.13;0.15;0.22;4.4;46.66;0.27;1.48E-13
4.42;49.04;0.12;-0.1;4.42;45.44;0.15;0.11;4.42;47.19;0.27;1.82E-13
4.44;49.28;0.12;-0.21;4.44;45.75;0.15;0.11;4.44;47.73;0.27;0.01
4.46;49.52;0.11;-0.34;4.46;46.06;0.16;0.11;4.46;48.26;0.27;-0.09
4.48;49.73;0.11;-0.11;4.48;46.38;0.16;2.46E-13;4.48;48.79;0.26;-0.32
4.5;49.95;0.11;-0.09;4.5;46.69;0.16;1.76E-13;4.5;49.31;0.25;-0.33
4.52;50.16;0.1;-0.32;4.52;47.02;0.16;-1.76E-13;4.52;49.81;0.25;-0.21
4.54;50.37;0.09;-0.34;4.54;47.33;0.16;0.01;4.54;50.31;0.25;-0.41
4.56;50.54;0.09;-0.1;4.56;47.66;0.16;-0.1;4.56;50.79;0.23;0.75
4.58;50.73;0.09;-0.2;4.58;47.97;0.16;-0.21;4.58;51.24;0.28;2.56
4.6;50.9;0.08;-0.45;4.6;48.28;0.15;-0.21;4.6;51.89;0.34;-0.09
4.62;51.06;0.07;-0.22;4.62;48.57;0.15;-0.31;4.62;52.58;0.27;-3.51
4.64;51.19;0.07;-0.17;4.64;48.86;0.14;-0.44;4.64;52.98;0.2;-2.58
4.66;51.35;0.07;0.85;4.66;49.12;0.13;-0.21;4.66;53.37;0.17;-1.12
4.68;51.46;0.11;-0.38;4.68;49.38;0.13;-0.2;4.68;53.66;0.15;-0.54
4.7;51.78;0.05;-2.88;4.7;49.64;0.12;-0.43;4.7;53.97;0.15;-0.42
4.72;51.66;-0.01;-0.28;4.72;49.86;0.11;-0.43;4.72;54.25;0.13;-0.53
4.74;51.75;0.04;2.26;4.74;50.09;0.1;-0.43;4.74;54.5;0.13;-0.64
4.76;51.82;0.08;0.82;4.76;50.28;0.1;-0.43;4.76;54.75;0.11;-0.76
4.78;52.08;0.07;-1.63;4.78;50.47;0.09;-0.43;4.78;54.94;0.1;-0.63
4.8;52.11;0.02;-1.49;4.8;50.63;0.08;-0.5;4.8;55.13;0.08;-0.85
4.82;52.15;0.01;-0.21;4.82;50.78;0.07;0.55;4.82;55.27;0.06;-0.99
4.84;52.17;0.01;-0.31;4.84;50.89;0.1;0.58;4.84;55.38;0.04;-0.65
4.86;52.19;0.000652;-0.43;4.86;51.18;0.09;-1.61;4.86;55.45;0.04;-0.51
4.88;52.17;-0.01;-0.43;4.88;51.25;0.04;-1.6;4.88;55.52;0.02;-0.86
4.9;52.15;-0.02;-0.44;4.9;51.32;0.03;-1.84;4.9;55.54;0;-0.87
4.92;52.1;-0.03;-0.24;4.92;51.35;-0.04;-1.9;4.92;55.52;-0.01;-0.74
4.94;52.05;-0.03;-1.39;4.94;51.17;-0.05;0.64;4.94;55.49;-0.03;-0.99
4.96;52;-0.08;-1.68;4.96;51.16;-0.01;0.73;4.96;55.41;-0.05;-0.78
4.98;51.73;-0.09;0.74;4.98;51.12;-0.02;-0.54;4.98;55.29;-0.06;-0.42
5;51.62;-0.05;0.94;5;51.07;-0.03;-0.63;5;55.17;-0.07;-0.51
5.02;51.52;-0.06;-0.22;5.02;50.99;-0.05;0.85;5.02;55.02;-0.08;-0.85
5.04;51.4;-0.06;-0.21;5.04;50.89;0.000161;-0.35;5.04;54.85;-0.1;-1
5.06;51.28;-0.06;-0.31;5.06;50.99;-0.06;-3.19;5.06;54.61;-0.12;-0.55
5.08;51.15;-0.07;-0.44;5.08;50.65;-0.13;-0.64;5.08;54.37;-0.12;-0.42
5.1;50.99;-0.08;-0.33;5.1;50.48;-0.09;0.96;5.1;54.12;-0.14;-0.55
5.12;50.82;-0.09;-0.22;5.12;50.31;-0.09;-0.54;5.12;53.82;-0.15;-0.41
5.14;50.65;-0.09;-0.22;5.14;50.12;-0.11;-0.56;5.14;53.53;-0.15;-0.51
5.16;50.46;-0.09;-0.21;5.16;49.88;-0.11;-0.21;5.16;53.21;-0.17;-2.28
5.18;50.27;-0.1;-0.33;5.18;49.68;-0.12;-0.32;5.18;52.87;-0.24;-3.8
5.2;50.07;-0.11;-0.22;5.2;49.42;-0.12;-0.32;5.2;52.23;-0.32;-0.53
5.22;49.84;-0.11;-0.09;5.22;49.18;-0.13;-0.32;5.22;51.6;-0.27;2.47
5.24;49.64;-0.11;-0.34;5.24;48.9;-0.14;-0.34;5.24;51.17;-0.22;1.06
5.26;49.4;-0.12;-0.12;5.26;48.63;-0.14;-0.11;5.26;50.72;-0.22;-0.22
5.28;49.16;-0.12;0.02;5.28;48.33;-0.14;-0.1;5.28;50.28;-0.23;-0.22
5.3;48.94;-0.12;-0.34;5.3;48.06;-0.15;-0.22;5.3;49.81;-0.23;-0.1
5.32;48.68;-0.13;-0.12;5.32;47.75;-0.15;-0.11;5.32;49.35;-0.23;-0.21
5.34;48.42;-0.12;0.02;5.34;47.46;-0.15;-0.11;5.34;48.88;-0.24;-0.35
5.36;48.18;-0.13;-0.23;5.36;47.15;-0.15;-0.12;5.36;48.38;-0.25;0.1
5.38;47.9;-0.13;-0.000161;5.38;46.84;-0.16;0.11;5.38;47.9;-0.24;0.23
5.4;47.64;-0.13;0.01;5.4;46.53;-0.15;0.11;5.4;47.44;-0.24;-0.01
5.42;47.39;-0.13;-0.12;5.42;46.24;-0.15;-0.01;5.42;46.95;-0.24;0.11
5.44;47.11;-0.13;0;5.44;45.93;-0.15;0.21;5.44;46.49;-0.23;0.1
5.46;46.85;-0.13;-1.78E-13;5.46;45.63;-0.14;0.34;5.46;46.02;-0.23;0.21
5.48;46.58;-0.13;-7.36E-14;5.48;45.36;-0.14;0.11;5.48;45.56;-0.22;0.34
5.5;46.32;-0.13;-0.01;5.5;45.08;-0.14;0.09;5.5;45.13;-0.22;0.09
5.52;46.04;-0.13;0.11;5.52;44.81;-0.13;0.32;5.52;44.68;-0.22;0.3
5.54;45.79;-0.13;0.11;5.54;44.55;-0.13;0.33;5.54;44.25;-0.21;0.66
5.56;45.53;-0.13;-0.01;5.56;44.31;-0.12;0.2;5.56;43.85;-0.19;0.44
5.58;45.27;-0.13;0.11;5.58;44.06;-0.12;0.42;5.58;43.47;-0.19;0.32
5.6;45.01;-0.12;0.11;5.6;43.84;-0.1;0.55;5.6;43.09;-0.18;0.43
5.62;44.77;-0.12;-0.01;5.62;43.65;-0.09;0.32;5.62;42.75;-0.17;0.42
5.64;44.51;-0.13;0.21;5.64;43.46;-0.09;0.42;5.64;42.4;-0.16;0.65
5.66;44.27;-0.12;0.33;5.66;43.28;-0.08;0.54;5.66;42.09;-0.15;0.65
5.68;44.05;-0.11;0.22;5.68;43.15;-0.07;0.42;5.68;41.81;-0.14;0.53
5.7;43.82;-0.11;0.22;5.7;43.01;-0.06;0.54;5.7;41.53;-0.13;0.65
5.72;43.62;-0.1;0.11;5.72;42.9;-0.05;0.54;5.72;41.31;-0.11;0.53
5.74;43.41;-0.1;0.09;5.74;42.82;-0.04;0.42;5.74;41.08;-0.1;0.64
5.76;43.2;-0.1;0.32;5.76;42.75;-0.03;0.54;5.76;40.89;-0.09;0.76
5.78;43.01;-0.09;0.33;5.78;42.69;-0.02;0.54;5.78;40.74;-0.07;0.65
5.8;42.84;-0.09;0.22;5.8;42.67;-0.01;0.42;5.8;40.6;-0.06;0.65
5.82;42.67;-0.08;0.22;5.82;42.65;0;0.64;5.82;40.49;-0.05;0.65
5.84;42.51;-0.08;0.21;5.84;42.67;0.02;0.66;5.84;40.41;-0.04;0.65
5.86;42.35;-0.07;0.32;5.86;42.72;0.03;0.42;5.86;40.35;-0.02;0.65
5.88;42.22;-0.07;0.44;5.88;42.77;0.03;0.54;5.88;40.32;-0.01;0.65
5.9;42.09;-0.06;0.34;5.9;42.86;0.05;0.54;5.9;40.32;0;0.64
5.92;41.99;-0.05;-0.02;5.92;42.96;0.06;0.42;5.92;40.33;0.02;0.65
5.94;41.89;-0.06;0.29;5.94;43.08;0.06;0.54;5.94;40.38;0.03;0.53
5.96;41.76;-0.04;0.89;5.96;43.21;0.08;0.55;5.96;40.45;0.04;0.64
5.98;41.73;-0.02;0.34;5.98;43.38;0.09;0.32;5.98;40.53;0.06;0.66
